delta t (sec),Ground Acceleration (in G)
0.01,-.1717737E-03
0.02,-.1706709E-03
0.03,-.1695650E-03
0.04,-.1684601E-03
0.05,-.1673513E-03
0.06,-.1662442E-03
0.07,-.1651337E-03
0.08,-.1640250E-03
0.09,-.1629143E-03
0.1,-.1617874E-03
0.11,-.1606344E-03
0.12,-.1594343E-03
0.13,-.1582482E-03
0.14,-.1571898E-03
0.15,-.1563056E-03
0.16,-.1554855E-03
0.17,-.1544386E-03
0.18,-.1531498E-03
0.19,-.1516941E-03
0.2,-.1503076E-03
0.21,-.1491023E-03
0.22,-.1478955E-03
0.23,-.1466517E-03
0.24,-.1456653E-03
0.25,-.1452143E-03
0.26,-.1448125E-03
0.27,-.1440581E-03
0.28,-.1442253E-03
0.29,-.1448011E-03
0.3,-.1429485E-03
0.31,-.1386874E-03
0.32,-.1355057E-03
0.33,-.1333624E-03
0.34,-.1300304E-03
0.35,-.1249386E-03
0.36,-.1228585E-03
0.37,-.1261279E-03
0.38,-.1340151E-03
0.39,-.1438183E-03
0.4,-.1446336E-03
0.41,-.1312951E-03
0.42,-.1096429E-03
0.43,-.9360989E-04
0.44,-.8859369E-04
0.45,-.9389344E-04
0.46,-.1122190E-03
0.47,-.1402358E-03
0.48,-.1638904E-03
0.49,-.1562296E-03
0.5,-.1121368E-03
0.51,-.6011062E-04
0.52,-.5521718E-04
0.53,-.1052740E-03
0.54,-.1494301E-03
0.55,-.1464224E-03
0.56,-.1273801E-03
0.57,-.1174509E-03
0.58,-.1121950E-03
0.59,-.1004884E-03
0.6,-.1061327E-03
0.61,-.1682434E-03
0.62,-.2624092E-03
0.63,-.3370273E-03
0.64,-.3875778E-03
0.65,-.3818237E-03
0.66,-.2920348E-03
0.67,-.1483996E-03
0.68,-.2970957E-04
0.69,-.5055371E-04
0.7,-.2196648E-03
0.71,-.4234363E-03
0.72,-.4882923E-03
0.73,-.3655092E-03
0.74,-.1673007E-03
0.75,-.2083537E-03
0.76,-.6085036E-03
0.77,-.9654080E-03
0.78,-.1004649E-02
0.79,-.8350799E-03
0.8,-.5691776E-03
0.81,-.1682380E-03
0.82,.1442445E-03
0.83,-.1079004E-03
0.84,-.9227281E-03
0.85,-.1938822E-02
0.86,-.2776746E-02
0.87,-.2708183E-02
0.88,-.1385199E-02
0.89,.3258937E-03
0.9,.1005272E-02
0.91,.4732363E-03
0.92,-.6379853E-03
0.93,-.1729290E-02
0.94,-.2519277E-02
0.95,-.3085099E-02
0.96,-.3571746E-02
0.97,-.3321971E-02
0.98,-.1916721E-02
0.99,.1590279E-03
1,.1836991E-02
1.01,.2413246E-02
1.02,.2509827E-02
1.03,.2029618E-02
1.04,.6795785E-03
1.05,-.1180587E-02
1.06,-.2545858E-02
1.07,-.2639721E-02
1.08,-.2498013E-02
1.09,-.3285560E-02
1.1,-.5117587E-02
1.11,-.7340540E-02
1.12,-.7789098E-02
1.13,-.3918078E-02
1.14,.3225440E-02
1.15,.8621997E-02
1.16,.8373861E-02
1.17,.3827684E-02
1.18,-.1310246E-02
1.19,-.4186960E-02
1.2,-.3355732E-02
1.21,-.6275616E-03
1.22,.1178638E-02
1.23,.1173945E-02
1.24,-.6756604E-03
1.25,-.3121490E-02
1.26,-.3463585E-02
1.27,-.1119676E-02
1.28,.1950081E-02
1.29,.5227117E-02
1.3,.8356798E-02
1.31,.8889177E-02
1.32,.5865694E-02
1.33,.1084335E-02
1.34,-.1674545E-02
1.35,.1219519E-02
1.36,.6861378E-02
1.37,.1002791E-01
1.38,.8831197E-02
1.39,.6195084E-02
1.4,.5201594E-02
1.41,.7441793E-02
1.42,.9449925E-02
1.43,.6640603E-02
1.44,-.2790153E-03
1.45,-.3836872E-02
1.46,.6086346E-03
1.47,.8937001E-02
1.48,.1277491E-01
1.49,.9498860E-02
1.5,.2474368E-02
1.51,-.3906598E-02
1.52,-.6747047E-02
1.53,-.2526610E-02
1.54,.5431698E-02
1.55,.1146612E-01
1.56,.1129080E-01
1.57,.5009171E-02
1.58,-.3107060E-02
1.59,-.6697214E-02
1.6,-.1914273E-02
1.61,.8315115E-02
1.62,.1715378E-01
1.63,.1746554E-01
1.64,.1003481E-01
1.65,.3209492E-02
1.66,-.1043986E-03
1.67,-.2587515E-02
1.68,-.6549352E-02
1.69,-.1242651E-01
1.7,-.1870864E-01
1.71,-.1439345E-01
1.72,.1023078E-01
1.73,.3491061E-01
1.74,.3941516E-01
1.75,.2689232E-01
1.76,.1939081E-01
1.77,.3013632E-01
1.78,.4638080E-01
1.79,.5307354E-01
1.8,.4599167E-01
1.81,.3094412E-01
1.82,.1615223E-01
1.83,.6241094E-02
1.84,.6054144E-02
1.85,.1705933E-01
1.86,.2860743E-01
1.87,.2720195E-01
1.88,.1318962E-01
1.89,.1760106E-03
1.9,-.2333386E-03
1.91,.1058082E-01
1.92,.2391619E-01
1.93,.2981917E-01
1.94,.2506166E-01
1.95,.1490035E-01
1.96,.7206447E-02
1.97,.4389183E-02
1.98,.1061349E-02
1.99,-.6621743E-02
2,-.1780983E-01
2.01,-.2400384E-01
2.02,-.1494262E-01
2.03,.4502848E-02
2.04,.1483860E-01
2.05,.6309648E-02
2.06,-.1372690E-01
2.07,-.3311328E-01
2.08,-.4232082E-01
2.09,-.3796160E-01
2.1,-.2814577E-01
2.11,-.2434291E-01
2.12,-.2215059E-01
2.13,-.1044369E-01
2.14,.6861753E-02
2.15,.1792445E-01
2.16,.2208451E-01
2.17,.1958924E-01
2.18,.1616277E-01
2.19,.1985722E-01
2.2,.3103233E-01
2.21,.4467659E-01
2.22,.5574061E-01
2.23,.5876367E-01
2.24,.5327363E-01
2.25,.4355522E-01
2.26,.3419006E-01
2.27,.2733502E-01
2.28,.2230149E-01
2.29,.1714270E-01
2.3,.1045597E-01
2.31,.5776865E-03
2.32,-.1524164E-01
2.33,-.3573180E-01
2.34,-.5712832E-01
2.35,-.7685042E-01
2.36,-.9025229E-01
2.37,-.8872676E-01
2.38,-.7471787E-01
2.39,-.5810004E-01
2.4,-.4958446E-01
2.41,-.5558554E-01
2.42,-.6217119E-01
2.43,-.5231969E-01
2.44,-.2637577E-01
2.45,.3609364E-02
2.46,.1904129E-01
2.47,.1235255E-01
2.48,-.6255888E-02
2.49,-.2297980E-01
2.5,-.3159893E-01
2.51,-.3180004E-01
2.52,-.2433715E-01
2.53,-.1600523E-01
2.54,-.1518314E-01
2.55,-.2213246E-01
2.56,-.2960752E-01
2.57,-.3088928E-01
2.58,-.2738314E-01
2.59,-.2120884E-01
2.6,-.1106275E-01
2.61,.1896588E-02
2.62,.1504760E-01
2.63,.2310673E-01
2.64,.1805796E-01
2.65,.2033526E-02
2.66,-.1623868E-01
2.67,-.3050759E-01
2.68,-.4032662E-01
2.69,-.4879678E-01
2.7,-.5888282E-01
2.71,-.7141136E-01
2.72,-.7809025E-01
2.73,-.4235668E-01
2.74,.3884615E-01
2.75,.9905220E-01
2.76,.9572862E-01
2.77,.4883345E-01
2.78,-.1416095E-03
2.79,-.2703363E-01
2.8,-.3381834E-01
2.81,-.3571258E-01
2.82,-.4519410E-01
2.83,-.5755312E-01
2.84,-.5194680E-01
2.85,-.2477801E-01
2.86,.3635513E-02
2.87,.9835845E-02
2.88,-.4888089E-02
2.89,-.1870583E-01
2.9,-.1393412E-01
2.91,.6947350E-02
2.92,.2573066E-01
2.93,.2670410E-01
2.94,.1204127E-01
2.95,-.5972245E-02
2.96,-.1387545E-01
2.97,-.9055488E-02
2.98,-.4230550E-02
2.99,-.1003652E-01
3,-.2539501E-01
3.01,-.4010422E-01
3.02,-.3321948E-01
3.03,.2419832E-03
3.04,.3593688E-01
3.05,.4455489E-01
3.06,.2604087E-01
3.07,-.5465769E-03
3.08,-.1496939E-01
3.09,-.8026728E-02
3.1,.1193458E-01
3.11,.3085623E-01
3.12,.3864343E-01
3.13,.3456026E-01
3.14,.2548528E-01
3.15,.1826233E-01
3.16,.1359569E-01
3.17,.9471676E-02
3.18,.4340206E-02
3.19,-.1106601E-02
3.2,-.2201651E-02
3.21,.3035864E-03
3.22,.1582315E-02
3.23,.2029486E-02
3.24,.2565003E-02
3.25,.1851937E-02
3.26,-.7399811E-03
3.27,.5371298E-03
3.28,.1571802E-01
3.29,.3883287E-01
3.3,.4991423E-01
3.31,.4212981E-01
3.32,.2467579E-01
3.33,.9270642E-02
3.34,.8559397E-03
3.35,-.2740300E-02
3.36,-.5558576E-02
3.37,-.4864205E-02
3.38,.2681438E-02
3.39,.1452788E-01
3.4,.2403617E-01
3.41,.2294574E-01
3.42,.1182345E-01
3.43,-.2014684E-02
3.44,-.1258097E-01
3.45,-.1705527E-01
3.46,-.1309029E-01
3.47,-.3441752E-02
3.48,.6345401E-02
3.49,.1197694E-01
3.5,.1024992E-01
3.51,.2878330E-02
3.52,-.4975182E-02
3.53,-.7904744E-02
3.54,-.5396162E-02
3.55,-.1927543E-02
3.56,-.1700433E-02
3.57,-.4142283E-02
3.58,-.3558802E-02
3.59,.2754156E-02
3.6,.1078343E-01
3.61,.1362785E-01
3.62,.1342459E-01
3.63,.1576493E-01
3.64,.1718408E-01
3.65,.1351537E-01
3.66,.5836438E-02
3.67,-.2526521E-02
3.68,-.9429526E-02
3.69,-.1484513E-01
3.7,-.1893980E-01
3.71,-.1938467E-01
3.72,-.1542543E-01
3.73,-.9291497E-02
3.74,-.6648698E-02
3.75,-.8128924E-02
3.76,-.1105040E-01
3.77,-.1320076E-01
3.78,-.1537195E-01
3.79,-.1546977E-01
3.8,-.9687348E-02
3.81,.3378878E-03
3.82,.8861698E-02
3.83,.9556693E-02
3.84,.3135147E-02
3.85,-.5072756E-02
3.86,-.9361655E-02
3.87,-.7518152E-02
3.88,-.4748160E-02
3.89,-.5349958E-02
3.9,-.9248238E-02
3.91,-.1431491E-01
3.92,-.1814787E-01
3.93,-.1549020E-01
3.94,-.4511833E-02
3.95,.7445873E-02
3.96,.1495360E-01
3.97,.1860242E-01
3.98,.1732666E-01
3.99,.1147241E-01
4,.4745064E-02
4.01,-.2726866E-03
4.02,-.5345784E-02
4.03,-.1257809E-01
4.04,-.1985630E-01
4.05,-.2048631E-01
4.06,-.1335319E-01
4.07,-.3545931E-02
4.08,.2825330E-02
4.09,.3215138E-02
4.1,-.5244395E-03
4.11,-.6232661E-02
4.12,-.1100942E-01
4.13,-.8091961E-02
4.14,.3257241E-02
4.15,.1716788E-01
4.16,.2464537E-01
4.17,.2296914E-01
4.18,.1887113E-01
4.19,.1739000E-01
4.2,.1729947E-01
4.21,.1536258E-01
4.22,.1061373E-01
4.23,.4295663E-02
4.24,-.2028586E-02
4.25,-.7490459E-02
4.26,-.9975344E-02
4.27,-.7690969E-02
4.28,-.3669250E-02
4.29,-.1574500E-02
4.3,-.3215586E-03
4.31,.1865200E-02
4.32,.3590616E-02
4.33,.3647001E-02
4.34,.2678914E-02
4.35,.2337847E-02
4.36,.3110269E-02
4.37,.3966913E-02
4.38,.5706026E-02
4.39,.7223799E-02
4.4,.6949427E-02
4.41,.5467887E-02
4.42,.3331329E-02
4.43,.1408278E-02
4.44,.2158031E-03
4.45,.5423939E-03
4.46,.3769371E-02
4.47,.7500024E-02
4.48,.7910224E-02
4.49,.4826348E-02
4.5,.7428780E-03
4.51,-.7340913E-03
4.52,.2093169E-02
4.53,.7049554E-02
4.54,.1005520E-01
4.55,.8061281E-02
4.56,.1519657E-02
4.57,-.5203134E-02
4.58,-.8063291E-02
4.59,-.6471934E-02
4.6,-.2236771E-02
4.61,.2359698E-02
4.62,.5939406E-02
4.63,.7559967E-02
4.64,.5614383E-02
4.65,.8196985E-03
4.66,-.3810007E-02
4.67,-.4508547E-02
4.68,-.1065065E-02
4.69,.2116708E-02
4.7,.2222786E-02
4.71,-.1601500E-03
4.72,-.4692571E-02
4.73,-.8321018E-02
4.74,-.6679045E-02
4.75,-.9104797E-03
4.76,.6696603E-02
4.77,.1089453E-01
4.78,.7811817E-02
4.79,-.9522401E-04
4.8,-.5595554E-02
4.81,-.2585520E-02
4.82,.5075127E-02
4.83,.8775064E-02
4.84,.5856550E-02
4.85,-.4197226E-03
4.86,-.4754820E-02
4.87,-.4843660E-02
4.88,-.3086374E-02
4.89,-.1267728E-02
4.9,-.5488646E-03
4.91,-.1886502E-02
4.92,-.4398724E-02
4.93,-.6464356E-02
4.94,-.6456977E-02
4.95,-.3677885E-02
4.96,.7984742E-03
4.97,.4679174E-02
4.98,.5104066E-02
4.99,.1941107E-02
5,-.1367770E-02
5.01,-.2536453E-02
5.02,-.1904673E-02
5.03,-.1405832E-02
5.04,-.2554958E-02
5.05,-.5208868E-02
5.06,-.8251118E-02
5.07,-.9177427E-02
5.08,-.6538450E-02
5.09,-.2780248E-02
5.1,.1013628E-02
5.11,.5331781E-02
5.12,.9503492E-02
5.13,.9840146E-02
5.14,.5136684E-02
5.15,-.1853677E-02
5.16,-.7157642E-02
5.17,-.6776254E-02
5.18,-.2169964E-02
5.19,.1382457E-02
5.2,.1213048E-02
5.21,-.2633391E-05
5.22,.4712392E-03
5.23,.1750875E-02
5.24,.1393818E-02
5.25,-.2375870E-03
5.26,-.9136319E-03
5.27,-.5650629E-03
5.28,-.1826388E-03
5.29,.9468889E-04
5.3,.2073463E-03
5.31,.6730195E-03
5.32,.5931033E-03
5.33,-.1750741E-02
5.34,-.3449145E-02
5.35,-.2053312E-02
5.36,.7351697E-03
5.37,.7742531E-03
5.38,-.2970837E-02
5.39,-.8207323E-02
5.4,-.1029749E-01
5.41,-.7589823E-02
5.42,-.9217607E-03
5.43,.7255317E-02
5.44,.1094626E-01
5.45,.6329213E-02
5.46,-.3280871E-02
5.47,-.1099863E-01
5.48,-.1355146E-01
5.49,-.1153276E-01
5.5,-.7434638E-02
5.51,-.3751753E-02
5.52,-.1235380E-03
5.53,.1660086E-02
5.54,.6237598E-03
5.55,-.2748802E-03
5.56,.1820233E-02
5.57,.5915976E-02
5.58,.8518181E-02
5.59,.9209461E-02
5.6,.1055351E-01
5.61,.1305497E-01
5.62,.1529855E-01
5.63,.1505736E-01
5.64,.1183311E-01
5.65,.8115920E-02
5.66,.5534517E-02
5.67,.4249254E-02
5.68,.4116533E-02
5.69,.4509450E-02
5.7,.4828246E-02
5.71,.4644380E-02
5.72,.3447974E-02
5.73,.1016247E-02
5.74,-.1136952E-02
5.75,-.1852819E-02
5.76,-.4052314E-03
5.77,.2691058E-02
5.78,.5462242E-02
5.79,.5496215E-02
5.8,.2667934E-02
5.81,-.9474975E-03
5.82,-.1941753E-02
5.83,.1054593E-02
5.84,.5516933E-02
5.85,.8092752E-02
5.86,.7829607E-02
5.87,.6065532E-02
5.88,.4456831E-02
5.89,.3492793E-02
5.9,.2198626E-02
5.91,-.1075695E-02
5.92,-.6548553E-02
5.93,-.1111717E-01
5.94,-.1188028E-01
5.95,-.8360769E-02
5.96,-.2632123E-02
5.97,.1228127E-02
5.98,.8130375E-03
5.99,-.2615630E-02
6,-.6232494E-02
6.01,-.7600994E-02
6.02,-.4901751E-02
6.03,-.1233612E-02
6.04,-.2085524E-03
6.05,-.1080388E-02
6.06,-.1395021E-02
6.07,-.1422189E-02
6.08,-.1804410E-02
6.09,-.1480609E-02
6.1,-.1159176E-03
6.11,.8555811E-03
6.12,.1608951E-03
6.13,-.1804533E-02
6.14,-.3134436E-02
6.15,-.3440335E-02
6.16,-.2664736E-02
6.17,-.1636620E-03
6.18,.2906217E-02
6.19,.4688687E-02
6.2,.4009055E-02
6.21,.8518715E-03
6.22,-.2713402E-02
6.23,-.4775602E-02
6.24,-.5059436E-02
6.25,-.4516775E-02
6.26,-.3677598E-02
6.27,-.1631167E-02
6.28,.2410298E-02
6.29,.6665512E-02
6.3,.8757513E-02
6.31,.7919962E-02
6.32,.5176819E-02
6.33,.2331876E-02
6.34,.4307056E-03
6.35,-.8341673E-03
6.36,-.2623008E-02
6.37,-.5816630E-02
6.38,-.9319939E-02
6.39,-.1126771E-01
6.4,-.1057631E-01
6.41,-.7710715E-02
6.42,-.2443797E-02
6.43,.5035504E-02
6.44,.1099906E-01
6.45,.1216823E-01
6.46,.9102406E-02
6.47,.4633142E-02
6.48,.1624441E-02
6.49,.5973180E-03
6.5,-.5507805E-05
6.51,-.2129611E-02
6.52,-.6254738E-02
6.53,-.1067776E-01
6.54,-.1146495E-01
6.55,-.7536955E-02
6.56,-.1632005E-02
6.57,.2482647E-02
6.58,.3466830E-02
6.59,.1969642E-02
6.6,-.6724862E-03
6.61,-.2502854E-02
6.62,-.2431310E-02
6.63,-.8777764E-03
6.64,.3619407E-03
6.65,.1337524E-03
6.66,-.2081376E-02
6.67,-.4638399E-02
6.68,-.5014617E-02
6.69,-.3222542E-02
6.7,-.2235931E-02
6.71,-.4284352E-02
6.72,-.7952552E-02
6.73,-.8931860E-02
6.74,-.6131375E-02
6.75,-.2734440E-02
6.76,-.5599685E-03
6.77,.8174503E-03
6.78,.1555842E-02
6.79,.1783074E-02
6.8,.2664294E-02
6.81,.4604326E-02
6.82,.5797518E-02
6.83,.4561274E-02
6.84,.2139032E-02
6.85,-.3105970E-03
6.86,-.1793296E-02
6.87,-.1554718E-02
6.88,-.6659941E-03
6.89,-.6182100E-03
6.9,-.1645908E-02
6.91,-.2839894E-02
6.92,-.1707131E-02
6.93,.5858624E-03
6.94,.1802505E-02
6.95,.1210131E-02
6.96,.4330395E-03
6.97,.1637225E-02
6.98,.4255960E-02
6.99,.6098278E-02
7,.5723739E-02
7.01,.4115049E-02
7.02,.3605238E-02
7.03,.4960483E-02
7.04,.6943074E-02
7.05,.6924665E-02
7.06,.4255183E-02
7.07,.7377437E-03
7.08,-.1216648E-02
7.09,-.1400274E-02
7.1,-.9702130E-03
7.11,-.7789945E-03
7.12,-.1095672E-02
7.13,-.1705669E-02
7.14,-.2089881E-02
7.15,-.1342109E-02
7.16,.4243142E-03
7.17,.1630166E-02
7.18,.8994915E-03
7.19,-.1537639E-02
7.2,-.4622558E-02
7.21,-.5594921E-02
7.22,-.3603754E-02
7.23,-.3717261E-03
7.24,.1091437E-02
7.25,-.1320089E-03
7.26,-.2204876E-02
7.27,-.4608732E-02
7.28,-.6078616E-02
7.29,-.5291953E-02
7.3,-.3707029E-02
7.31,-.3132280E-02
7.32,-.4580423E-02
7.33,-.6691761E-02
7.34,-.7016564E-02
7.35,-.5158468E-02
7.36,-.2334915E-02
7.37,.4850602E-04
7.38,.1434242E-02
7.39,.2158719E-02
7.4,.2773300E-02
7.41,.3381740E-02
7.42,.3322136E-02
7.43,.1589390E-02
7.44,-.1565991E-02
7.45,-.3723987E-02
7.46,-.3317995E-02
7.47,-.2048297E-02
7.48,-.1987889E-02
7.49,-.2611924E-02
7.5,-.1815403E-02
7.51,.8279364E-03
7.52,.3827487E-02
7.53,.5438727E-02
7.54,.5592953E-02
7.55,.5193329E-02
7.56,.4110324E-02
7.57,.2160114E-02
7.58,.3265246E-03
7.59,-.1829364E-03
7.6,.3076496E-03
7.61,.6325097E-03
7.62,.3814925E-03
7.63,.6685254E-03
7.64,.3173853E-02
7.65,.6496843E-02
7.66,.8563410E-02
7.67,.8091751E-02
7.68,.4985140E-02
7.69,.7770702E-03
7.7,-.2398986E-02
7.71,-.3077534E-02
7.72,-.2495762E-02
7.73,-.1591452E-02
7.74,.3581699E-03
7.75,.2030992E-02
7.76,.1880487E-02
7.77,.3469061E-03
7.78,-.1157295E-02
7.79,-.1768982E-02
7.8,-.1474198E-02
7.81,-.5730362E-03
7.82,.6693891E-03
7.83,.1980788E-02
7.84,.2502585E-02
7.85,.1488145E-02
7.86,-.6898062E-03
7.87,-.2436471E-02
7.88,-.2421728E-02
7.89,-.1234797E-02
7.9,-.1179866E-02
7.91,-.2634688E-02
7.92,-.4226720E-02
7.93,-.4650332E-02
7.94,-.3426791E-02
7.95,-.1441639E-02
7.96,-.2809123E-03
7.97,-.7912233E-03
7.98,-.1281159E-02
7.99,-.3185791E-03
8,.8688733E-03
8.01,.2592240E-03
8.02,-.2646621E-02
8.03,-.5304617E-02
8.04,-.4244126E-02
8.05,.2160226E-03
8.06,.4558748E-02
8.07,.4803020E-02
8.08,.5309625E-03
8.09,-.4332354E-02
8.1,-.5815664E-02
8.11,-.3322905E-02
8.12,-.1769761E-03
8.13,.9304334E-03
8.14,.4455464E-03
8.15,.7657062E-03
8.16,.2799086E-02
8.17,.4884531E-02
8.18,.5279947E-02
8.19,.3847810E-02
8.2,.1367921E-02
8.21,-.7807449E-03
8.22,-.6477874E-03
8.23,.1680310E-02
8.24,.4476645E-02
8.25,.6326722E-02
8.26,.6947574E-02
8.27,.6833779E-02
8.28,.6245491E-02
8.29,.4444206E-02
8.3,.1461151E-02
8.31,-.1326586E-02
8.32,-.2451170E-02
8.33,-.1313284E-02
8.34,.1232497E-02
8.35,.3566086E-02
8.36,.4853073E-02
8.37,.5250355E-02
8.38,.4780278E-02
8.39,.3393368E-02
8.4,.1810211E-02
8.41,.1162174E-02
8.42,.1897670E-02
8.43,.3423751E-02
8.44,.5028519E-02
8.45,.6447472E-02
8.46,.7227664E-02
8.47,.6095320E-02
8.48,.2786238E-02
8.49,-.1475862E-02
8.5,-.5080844E-02
8.51,-.5254191E-02
8.52,-.1456372E-02
8.53,.3046472E-02
8.54,.5028778E-02
8.55,.3917803E-02
8.56,.1156689E-02
8.57,-.1139186E-02
8.58,-.1491888E-02
8.59,-.6661848E-03
8.6,-.7837582E-03
8.61,-.2593586E-02
8.62,-.5217301E-02
8.63,-.6943766E-02
8.64,-.6193990E-02
8.65,-.3140340E-02
8.66,-.8222366E-05
8.67,.1194808E-02
8.68,.2483119E-03
8.69,-.4468213E-03
8.7,.3320520E-03
8.71,.6796740E-03
8.72,-.1024745E-02
8.73,-.4408364E-02
8.74,-.7068277E-02
8.75,-.6427470E-02
8.76,-.1822305E-02
8.77,.3995843E-02
8.78,.6970833E-02
8.79,.5915403E-02
8.8,.2245961E-02
8.81,-.2642235E-02
8.82,-.6692641E-02
8.83,-.7876334E-02
8.84,-.6668388E-02
8.85,-.4688031E-02
8.86,-.2857663E-02
8.87,-.1431936E-02
8.88,-.3965376E-03
8.89,-.4137785E-03
8.9,-.1866492E-02
8.91,-.3724774E-02
8.92,-.3974146E-02
8.93,-.2103673E-02
8.94,.6081738E-03
8.95,.2749919E-02
8.96,.2722373E-02
8.97,.4399665E-03
8.98,-.2219955E-02
8.99,-.3613459E-02
9,-.4361004E-02
9.01,-.5299069E-02
9.02,-.5248349E-02
9.03,-.3578510E-02
9.04,-.1107455E-02
9.05,.9581687E-03
9.06,.1825789E-02
9.07,.1659264E-02
9.08,.1138767E-02
9.09,.1109021E-02
9.1,.1602949E-02
9.11,.1662832E-02
9.12,.9319293E-03
9.13,-.1486543E-03
9.14,-.7562807E-03
9.15,-.5599524E-03
9.16,.6666031E-04
9.17,.5994909E-03
9.18,.8044645E-03
9.19,.7133174E-03
9.2,.4772638E-03
9.21,.1478484E-03
9.22,-.3319887E-03
9.23,-.7939581E-03
9.24,-.1022293E-02
9.25,-.1295394E-02
9.26,-.1149292E-02
9.27,.9614211E-04
9.28,.1753220E-02
9.29,.2023264E-02
9.3,.2770267E-03
9.31,-.1506852E-02
9.32,-.9834445E-03
9.33,.1755756E-02
9.34,.4842492E-02
9.35,.5983653E-02
9.36,.4783229E-02
9.37,.2802210E-02
9.38,.1885338E-02
9.39,.2130845E-02
9.4,.1899704E-02
9.41,.5320296E-03
9.42,-.8625953E-03
9.43,-.8071841E-03
9.44,.1661816E-02
9.45,.5197355E-02
9.46,.6734997E-02
9.47,.5058014E-02
9.48,.1640112E-02
9.49,-.1404980E-02
9.5,-.2502490E-02
9.51,-.1188215E-02
9.52,.7086466E-03
9.53,.1816591E-02
9.54,.2717478E-02
9.55,.3836854E-02
9.56,.4595051E-02
9.57,.3566040E-02
9.58,.8925517E-03
9.59,-.1855582E-02
9.6,-.3496128E-02
9.61,-.3427806E-02
9.62,-.1862769E-02
9.63,-.8363358E-04
9.64,.7977151E-03
9.65,.5848146E-03
9.66,-.1258145E-03
9.67,-.9582666E-03
9.68,-.1992798E-02
9.69,-.2882787E-02
9.7,-.2556771E-02
9.71,-.9230324E-03
9.72,.1002439E-02
9.73,.2094267E-02
9.74,.1538284E-02
9.75,-.5584122E-03
9.76,-.3151282E-02
9.77,-.4968100E-02
9.78,-.5637986E-02
9.79,-.5595097E-02
9.8,-.5237028E-02
9.81,-.4215024E-02
9.82,-.2394116E-02
9.83,-.1444861E-03
9.84,.2035491E-02
9.85,.3105696E-02
9.86,.2317286E-02
9.87,.5322068E-03
9.88,-.7434045E-03
9.89,-.7990479E-03
9.9,-.5525467E-03
9.91,-.1071900E-02
9.92,-.2278004E-02
9.93,-.3490673E-02
9.94,-.4077854E-02
9.95,-.3863972E-02
9.96,-.2919224E-02
9.97,-.1681307E-02
9.98,-.7598954E-03
9.99,-.4196105E-03
10,-.6525581E-03
10.01,-.1314403E-02
10.02,-.1983961E-02
10.03,-.2203251E-02
10.04,-.1773507E-02
10.05,-.8685982E-03
10.06,.1071622E-03
10.07,.4632963E-03
10.08,-.4476595E-03
10.09,-.2388654E-02
10.1,-.3858024E-02
10.11,-.3571156E-02
10.12,-.1798865E-02
10.13,.9029689E-04
10.14,.1153931E-02
10.15,.1219528E-02
10.16,.7807325E-03
10.17,.4084751E-03
10.18,.2767133E-03
10.19,.8165532E-04
10.2,-.5752120E-03
10.21,-.1548784E-02
10.22,-.2260723E-02
10.23,-.1080769E-02
10.24,.1704153E-02
10.25,.4019251E-02
10.26,.4194485E-02
